##TITLE=Crocoite
##JCAMP-DX=5.01  $$ Nicolet v. 521
##DATATYPE=RAMAN SPECTRUM
##ORIGIN=none
##OWNER=Nicolet
##LONGDATE=2017/05/12
##TIME=14:56:49
##DATA PROCESSING=
Converted from JCAMP
##XUNITS=
##YUNITS=ARBITRARY UNITS
##FIRSTX=162.955444
##LASTX=1516.739136
##FIRSTY=30.278616
##MAXX=1516.739136
##MINX=162.955444
##MAXY=17941.191406
##MINY=-20.727966
##XFACTOR=1.000000
##YFACTOR=1.000000E-004
##NPOINTS=1405
##DELTAX=0.964233
##XYDATA=(X++(Y..Y))
162.955 302786 102869 3778 27486 162370 166202 132286 64179 112385 113846 
172.598 112371 146172 161246 156344 77678 377477 695239 702680 371849 245211 
182.240 530458 468021 329390 413616 347559 381955 488026 450021 619673 
190.918 609293 399637 254993 275604 520022 422348 359857 315870 268396 
199.596 139270 105679 345775 198949 125911 219798 294149 248681 191837 
208.274 208155 187425 145014 126307 204265 339572 399752 382604 340662 
216.953 272419 240716 334389 330945 197936 181072 221509 334265 241883 
225.631 238718 259563 253748 162072 85422 100915 201553 167379 63743 150735 
235.273 226436 227873 263962 156504 8509 48827 40248 17732 238463 62459 8654 
245.880 85977 238647 73556 -3148 89420 80812 67403 101707 42878 74476 109980 
256.486 42377 53997 150398 202252 101971 22410 42966 24821 24130 78307 
266.128 108960 102176 86997 170031 163551 141575 100297 136014 190014 180496 
275.771 88212 30506 22386 80971 58271 80803 123480 170586 116810 117910 
285.413 147119 87034 58923 89263 82884 42856 61702 189546 179939 91104 83113 
296.020 5897 9259 99265 34136 -32909 19180 224232 131650 83601 157666 280999 
306.626 278045 246734 225179 305183 424275 508356 525883 510376 542455 
315.304 611416 633518 691774 845572 935693 1132370 1589461 1637109 1979504 
323.982 2615980 3524401 3846302 4747497 6394278 7103694 7161711 6725426 
331.696 5711349 5032663 4705904 4647485 5110415 5625216 6656540 8680159 
339.410 11524414 13991486 14938479 13695608 10631670 7868286 6747057 5765761 
347.124 5316160 6022280 6979728 7851108 8623546 8585165 7557491 5251834 
354.838 6983741 4906626 3120895 2367192 1811937 1713566 1706306 1645421 
362.552 1557297 1468445 1343217 1084811 1152155 1364849 1442272 1362158 
370.266 1242524 1281717 1514288 1845608 2141945 2195187 3141358 5041014 
377.979 8293711 10253104 11219447 11314578 8252922 7282950 5950498 3627541 
385.693 2466135 2118178 1887424 1585387 1252458 1109319 1051551 942259 
393.407 953892 963703 946761 1052936 1221767 1421506 1700286 2088158 2541391 
402.085 2945374 3370206 3704798 2844935 2720407 2384598 1808856 1200692 
409.799 927358 788455 780558 618947 461903 430642 605071 598129 493614 
418.477 435326 502446 445913 467053 567415 428743 345074 466880 560415 
427.155 542491 448993 397114 436810 397059 280065 395680 333209 334146 
435.833 412239 542848 491787 472046 544852 553453 503922 503370 618500 
444.512 596228 518726 492080 565711 610948 582981 540812 532018 536107 
453.190 493900 481539 492571 496474 461948 440267 431098 350864 513696 
461.868 604336 604474 560186 398858 406791 701080 736892 605159 542739 
470.546 695181 535509 496735 595396 652490 603225 591266 640583 552481 
479.224 489947 588595 688140 598864 427962 502669 540186 540513 501028 
487.902 507107 576611 647809 753147 405322 373236 460937 651942 471068 
496.580 555654 643078 429187 490399 737264 846366 620905 421280 401095 
505.258 426930 511654 521763 388191 361173 425514 549898 572927 797386 
513.936 761517 438919 402702 381764 406259 412754 382321 403093 405285 
522.615 400890 390247 450468 466106 460976 489885 527597 412177 275232 
531.293 451754 644477 673107 693890 564796 370989 318141 310237 330355 
539.971 378677 417397 446068 491990 566493 530955 468363 413572 365059 
548.649 386679 337398 277476 237997 281234 305206 304590 317968 333786 
557.327 404976 490363 426536 407774 455851 303612 110577 120138 279543 
566.005 280890 385522 356890 176015 251541 180620 214576 450318 170438 
574.683 166891 221600 225072 208483 134008 117714 295082 264333 58833 -51495 
584.325 146005 194666 53987 72124 133820 120783 113894 209564 28939 918 
593.968 129864 4720 73094 124824 144325 196662 124094 54518 11955 35072 
603.610 125731 164457 77088 21250 129139 117160 30556 56618 185067 187998 
613.252 31643 27517 71528 13144 -67210 47208 255959 155 58466 88885 94236 
623.859 7844 47301 62488 20599 77192 17972 32125 51757 26696 29084 95116 
634.466 135174 57413 47622 91425 105171 84239 77845 154948 271043 235987 
644.108 88503 8835 89097 69990 60181 59341 77707 122665 132579 100241 38114 
654.714 68785 115733 166048 125330 166121 206931 201253 136653 83068 90472 
664.357 114589 85169 97785 129499 86971 13303 81086 299176 97425 65623 40019 
674.963 20379 20223 4492 -341 8203 18690 -920 2422 43862 92073 146256 128091 
686.534 106161 141186 118995 131521 178128 178428 204973 211593 171243 
695.212 245539 274834 239634 407790 377183 322647 259803 494706 415620 
703.890 355113 320634 341598 408212 477401 463446 333155 219854 85143 84179 
713.533 353725 465833 456104 392981 192456 249447 392747 441080 519175 
722.211 549168 554638 544397 471848 467492 507286 430283 359539 715016 
730.889 748267 389904 370874 595887 660205 420068 671900 661528 549740 
739.567 522086 661147 680226 643354 649631 721193 802487 918114 880833 
748.245 704176 915441 1115543 877516 747654 797323 993495 1089553 1157391 
756.923 1239297 1261453 1204784 1342651 1283783 1248452 1280269 1388196 
764.637 1331102 1404952 1451543 1303200 1420287 1468757 1381976 1232346 
772.351 1402391 1832592 1915920 1697063 1944126 2229994 2079504 2054811 
780.065 2119723 2263088 2408692 2642042 2614774 2768871 3139863 3404024 
787.779 3634853 3832942 3974506 4277096 4560701 4499616 4590666 5184349 
795.493 5562184 5594001 5676197 6138745 6520005 6861986 7164158 7289131 
803.206 7536513 7900874 8285146 8514177 8519175 8813870 9394282 10174297 
810.920 9952355 10356133 11522709 12124937 13538165 13766813 14335627 
817.670 15616578 17730734 19396640 21189360 22967802 24166738 27341370 
824.420 30006794 31670424 33429206 37155268 41488780 43837368 45439596 
831.169 49049828 54224672 61229984 70473448 72938424 82863064 100283848 
837.919 124152032 132402208 147164544 172123632 179411920 172052896 
843.704 166534144 154721616 131667712 114491144 101114568 92653752 88074912 
850.454 86961960 83990128 81198696 81488616 85768744 87842624 87206848 
857.203 87816856 86234072 81645232 75327824 69536464 60491224 58611344 
863.953 54496968 47981192 43318648 38683540 36241484 34190416 32337188 
870.703 30013394 28139802 26527952 25145668 23237540 22000920 21338282 
877.452 20546810 19135136 18249634 17133928 16287867 16245638 15787999 
884.202 14997587 14371583 14044585 13323711 12702891 12192750 11854877 
890.952 11492279 10972806 10244635 10307072 9711049 9684105 9413660 8584962 
898.666 8727728 8067051 7577383 7384995 7485613 7188434 6616185 6461867 
906.379 6496733 6217622 5749735 5385437 5147726 4922301 4851113 4687953 
914.093 4318516 4550428 4393191 4242153 4109065 3489507 3224293 3155326 
921.807 3063562 2907541 2923313 2843211 2851997 3059753 3087616 3013563 
929.521 2660211 2381664 2561548 2431977 2137540 2174172 2386746 2430925 
937.235 2354333 2078645 1835347 2122515 2125884 1892478 1722609 1789830 
944.949 1592551 1564034 1737974 1567861 1683002 1350153 1225501 1536672 
952.663 1325228 1484523 1352521 1134159 981415 1314638 1145143 933825 988283 
961.341 1122401 1017060 905810 993513 975309 906002 756046 614974 748131 
970.019 844350 850693 761748 783714 903975 754660 666223 717752 367480 
978.697 501128 782301 932599 870457 745530 628435 540053 485762 460318 
987.375 530468 471379 440749 537198 384959 262058 331107 268674 295164 
996.053 396541 535438 381049 427973 465551 455026 375731 540107 335374 
1004.731 301532 112046 1336 47510 347172 239900 6827 -51356 219484 318984 
1014.374 376274 285006 78238 261312 422949 219016 89049 228488 184619 23263 
1024.016 49104 10470 -90215 9890 355617 213877 106422 -29718 -16510 252464 
1033.658 72370 283860 123596 47951 81805 120422 142201 223368 363650 449289 
1043.301 359596 207254 87452 1842 -3519 58732 151252 158570 164156 348031 
1052.943 345957 144873 33897 82424 94798 106252 138417 12828 177416 123715 
1062.585 96516 127174 197198 206699 205243 225110 230128 177652 144038 
1071.263 148060 170269 217860 193812 148607 128578 29367 158605 93925 106725 
1080.906 208255 139278 77416 64409 60489 34187 297316 110169 154634 205799 
1090.548 39255 69460 367438 200708 34294 92148 166670 160079 81712 20773 
1100.190 -19144 12602 117195 177204 46502 127790 4830 5836 145248 91610 
1109.833 133025 210266 199062 56257 16086 117258 243328 186110 109324 141669 
1119.475 62043 7536 34985 68326 58933 33034 15791 3399 3724 58314 138041 
1130.082 138916 60020 68939 35685 138793 411930 74829 81843 142877 121842 
1139.724 88870 41114 174212 83722 77874 98542 45698 38717 198718 157998 
1149.366 24935 11719 145733 256162 273259 284950 235268 243852 247739 145135 
1159.009 287555 74223 44619 30723 13700 285632 267848 198148 221903 413401 
1168.651 273383 315716 322320 322188 376955 529203 618721 322972 360870 
1177.329 518668 420387 339629 402193 439582 321347 522155 476284 279129 
1186.007 440882 518958 511247 444310 427835 473546 498316 499796 419414 
1194.685 286965 321397 645290 845336 498571 789729 684536 369920 589997 
1203.363 701290 503295 549537 839898 760006 583735 626740 588515 462919 
1212.041 438016 532380 749361 561133 725350 836134 593116 523937 740510 
1220.719 703620 853262 822841 847686 826526 638343 631590 624343 539780 
1229.398 589836 709048 687364 787709 585748 355717 586494 481839 509439 
1238.076 626817 642559 550387 627878 793396 730657 373570 730078 643370 
1246.754 525367 531318 751730 512738 527713 519263 530465 583978 673291 
1255.432 721041 656408 653530 566685 418547 626462 850287 567262 440213 
1264.110 982784 783889 655289 600509 671522 504331 552786 745198 759486 
1272.788 522468 605045 398690 543610 610151 517703 455077 512123 616366 
1281.466 475402 369566 432609 509147 429462 506659 476802 273513 353033 
1290.144 449021 384621 274226 423561 279770 180508 431245 512252 400265 
1298.822 227238 336527 309365 611228 650376 151815 17734 96570 52204 26258 
1308.465 50084 85323 183177 136026 261840 318911 57168 20260 302901 443906 
1318.107 73129 283736 231996 273326 289862 283049 202364 239151 350592 
1326.785 176561 136835 360919 309521 84470 208412 188325 141556 257372 
1335.463 209884 172824 198177 250145 168264 48513 389623 451419 -10506 95456 
1345.106 378915 350101 282317 189949 353021 15557 220431 317421 357927 
1353.784 326526 533009 231547 263553 449986 170492 -22836 262975 312817 
1362.462 82668 245123 368124 274780 238984 225569 171531 147240 175695 
1371.140 126525 32147 68486 182126 50112 114280 340421 208364 150165 192379 
1380.782 341813 363996 132245 337867 258362 165796 247932 338662 198205 
1389.460 263400 229447 140747 133022 159265 136929 133646 236413 335070 
1398.138 396538 428646 386856 191556 239768 292632 106849 251158 358723 
1406.817 434870 45592 284194 316066 139088 417093 590530 323292 223135 
1415.495 314566 196361 283894 485736 390051 321911 335214 254768 226564 
1424.173 348756 529575 534213 467981 608034 271802 34432 63910 346261 411738 
1433.815 171836 462320 244161 205009 234200 176372 164819 270286 418694 
1442.493 478948 189783 412396 560881 363096 215757 290154 249508 227138 
1451.171 475313 298851 49274 144267 518445 620632 347158 299279 475292 
1459.849 541424 437961 738646 335972 631860 394754 585205 553366 411859 
1468.527 290095 288010 555073 564209 497982 577812 668081 663089 453504 
1477.206 444485 645988 491155 550423 430839 254491 48675 563607 300271 
1485.884 586786 677854 110131 -43597 471409 576302 181604 445572 514131 
1494.562 301857 219257 573656 472590 335795 468222 389949 91096 -86644 
1503.240 177899 286234 144433 425640 264160 171103 596449 441887 250135 
1511.918 -8174 485267 181000 161511 46846 -207279 
##END=
