##TITLE=RMP00146 Titanium white, rutile form, PW6; F&S, Forbes; 532; PMA; scat
##JCAMP-DX=5.01
##DATA TYPE=RAMAN SPECTRUM
##XUNITS=1/CM
##YUNITS=RELATIVE INTENSITY
##MAXY=3.93709
##MINY=0.05033024
##MAXX=1542.5
##MINX=35.0
##XFACTOR=1
##YFACTOR=1
##FIRSTX=35.0
##LASTX=1542.5
##FIRSTY=0.05033024
##NPOINTS=3021
##DELTAX=0.499
##ORIGIN=http://www.irug.org/jcamp-details?id=4449
##OWNER=
##DATE=
##TIME=
##LONGDATE=
##SAMPLE DESCRIPTION=Titanium oxide
##CAS NAME=Titanium oxide (TiO2), Rutile (TiO2)
##NAMES=Titanium white, rutile form, Pigment White 6 (PW6), CI77891
##MOLFORM=O2 Ti
##CAS REGISTRY NO=13463-67-7 (titanium oxide), 1317-80-2 (rutile)
##SPECTROMETER/DATA SYSTEM=Raman microscopy/microspectroscopy
##SAMPLING PROCEDURE=SCATTERING
##DATA PROCESSING=
##COMMENTS=
{'IRUG filename': 'RMP00146',
  'Data type': 'Raman',
  'IRUG material class': 'Minerals and pigments (MP)',
  'Sample type': 'Reference material',
  'Common name(s)': 'Titanium white, rutile form, Pigment White 6 (PW6), CI77891',
  'Chemical/botanical name(s)': 'Titanium oxide',
  'CAS name': 'Titanium oxide (TiO2), Rutile (TiO2)',
  'Sample source 1': 'Fezandie & Sperrle (F&S)',
  'Sample identifier 1': 'Titanium white',
  'Sample source 2': 'Forbes Pigment Collection, Fogg Art Museum (Harvard Art Museums)',
  'Source location 2': '32 Quincy Street, Cambridge, MA, 02138, US',
  'Sample source 3': 'Forbes Pigment Collection, Philadelphia Museum of Art',
  'Source location 3': 'PO Box 7646 Philadelphia, PA, 19101, US',
  'Color': 'White, opaque',
  'MW (relative)': '79.87, calculated',
  'Application': 'Raman microscopy/microspectroscopy',
  'Excitation source (nm)': '532',
  'Mode': 'Scat',
  'Originating institution name': 'Philadelphia Museum of Art',
  'Originating institution acronym': 'PMA',
  'Molecular formula': 'O2 Ti',
  'Linear formula': 'TiO2',
  'CAS registry no': '13463-67-7 (titanium oxide), 1317-80-2 (rutile)',
  'Other analytical methods': 'EDS (energy dispersive spectroscopy)'}
##COLOR=White, opaque
##LASER=532
##XYDATA=(XY..XY) 
35 0.05033024
35.49917 0.05610512
35.99834 0.06202044
36.49752 0.06788753
36.99669 0.07398314
37.49586 0.08089006
37.99503 0.08882363
38.49421 0.09758585
38.99338 0.1065652
39.49255 0.1152698
39.99172 0.1236147
40.49089 0.1318042
40.99007 0.1402267
41.48924 0.1491033
41.98841 0.1582247
42.48758 0.1671583
42.98676 0.1755725
43.48593 0.1832661
43.9851 0.1903687
44.48427 0.1968455
44.98344 0.2025337
45.48262 0.2071882
45.98179 0.210353
46.48096 0.2119693
46.98013 0.2124776
47.4793 0.212578
47.97848 0.2132889
48.47765 0.2150113
48.97682 0.2178337
49.47599 0.2211723
49.97517 0.2244089
50.47434 0.2268439
50.97351 0.2284452
51.47268 0.2295984
51.97185 0.2308406
52.47103 0.232625
52.9702 0.2352085
53.46937 0.2387774
53.96854 0.2430953
54.46771 0.2480742
54.96689 0.2539157
55.46606 0.260759
55.96523 0.2689705
56.4644 0.2788438
56.96358 0.2900842
57.46275 0.302085
57.96192 0.3139411
58.46109 0.3249034
58.96026 0.3342679
59.45944 0.3419269
59.95861 0.3483292
60.45778 0.3543727
60.95695 0.3610391
61.45613 0.3688874
61.9553 0.3784128
62.45447 0.3892649
62.95364 0.4009818
63.45282 0.4129177
63.95199 0.4245958
64.45116 0.4358934
64.95033 0.4468119
65.4495 0.4575356
65.94867 0.4680744
66.44785 0.4780846
66.94702 0.4872091
67.44619 0.4949833
67.94536 0.5011
68.44454 0.5059503
68.94371 0.5100474
69.44288 0.5144116
69.94205 0.5197737
70.44123 0.5264159
70.9404 0.53392
71.43957 0.5414853
71.93874 0.5481427
72.43791 0.5532071
72.93709 0.5568077
73.43626 0.559519
73.93543 0.5622297
74.4346 0.5654971
74.93377 0.5696799
75.43295 0.5744399
75.93212 0.5792873
76.43129 0.5837542
76.93046 0.5878513
77.42964 0.5917566
77.92881 0.5957864
78.42798 0.600134
78.92715 0.6048262
79.42633 0.6096492
79.9255 0.6144259
80.42467 0.6191417
80.92384 0.6239161
81.42301 0.628877
81.92218 0.6340624
82.42136 0.6391967
82.92053 0.6438995
83.4197 0.6477494
83.91887 0.6506136
84.41805 0.6526432
84.91722 0.6540586
85.41639 0.6553613
85.91556 0.6569061
86.41473 0.6589154
86.91391 0.6613242
87.41308 0.6639844
87.91225 0.6666216
88.41142 0.6688383
88.9106 0.6702769
89.40977 0.6705993
89.90894 0.6700267
90.40811 0.6687966
90.90729 0.667342
91.40646 0.6661378
91.90563 0.6654122
92.4048 0.664913
92.90397 0.664165
93.40315 0.6627483
93.90232 0.6605571
94.40149 0.6580153
94.90066 0.6560167
95.39983 0.6556309
95.89901 0.6571681
96.39818 0.6607622
96.89735 0.6656186
97.39652 0.6707863
97.8957 0.6752442
98.39487 0.6784196
98.89404 0.6805161
99.39321 0.6819976
99.89238 0.6835997
100.3916 0.6857521
100.8907 0.6887224
101.3899 0.6920812
101.8891 0.6952062
102.3882 0.6973558
102.8874 0.6984109
103.3866 0.6984845
103.8858 0.6981426
104.3849 0.6982445
104.8841 0.6997425
105.3833 0.7028874
105.8825 0.7070416
106.3816 0.7113405
106.8808 0.7146628
107.38 0.716359
107.8791 0.7160537
108.3783 0.7145698
108.8775 0.7133228
109.3767 0.7136496
109.8758 0.7160973
110.375 0.7205103
110.8742 0.7263433
111.3733 0.7321233
111.8725 0.7367026
112.3717 0.739154
112.8709 0.7398342
113.37 0.7391391
113.8692 0.7376303
114.3684 0.7360828
114.8675 0.7349687
115.3667 0.7345344
115.8659 0.7346857
116.3651 0.7353909
116.8642 0.7365467
117.3634 0.7379138
117.8626 0.7392294
118.3618 0.7401144
118.8609 0.7404631
119.3601 0.7403161
119.8593 0.7400386
120.3584 0.7400698
120.8576 0.7408702
121.3568 0.742494
121.856 0.7445289
122.3551 0.7462936
122.8543 0.7473782
123.3535 0.7477916
123.8526 0.7479371
124.3518 0.7485631
124.851 0.7502434
125.3502 0.7529158
125.8493 0.755494
126.3485 0.7569717
126.8477 0.7563848
127.3469 0.7541534
127.846 0.7512625
128.3452 0.749863
128.8444 0.7513296
129.3435 0.7562305
129.8427 0.763879
130.3419 0.7724561
130.8411 0.7801124
131.3402 0.7851112
131.8394 0.7867462
132.3386 0.7849076
132.8377 0.7805859
133.3369 0.7749962
133.8361 0.7695621
134.3353 0.765926
134.8344 0.7654548
135.3336 0.7699115
135.8328 0.7778279
136.332 0.7876452
136.8311 0.7975399
137.3303 0.8065322
137.8295 0.8153493
138.3286 0.8275524
138.8278 0.847194
139.327 0.876354
139.8262 0.9143687
140.3253 0.9548021
140.8245 0.9899046
141.3237 1.01021
141.8228 1.011183
142.322 0.9910529
142.8212 0.9567465
143.3204 0.917441
143.8195 0.8805951
144.3187 0.8514646
144.8179 0.8309888
145.317 0.8189992
145.8162 0.8118
146.3154 0.8066601
146.8146 0.8028707
147.3137 0.8002037
147.8129 0.7987597
148.3121 0.7985947
148.8113 0.7988951
149.3104 0.7989032
149.8096 0.7980805
150.3088 0.7966304
150.808 0.7948124
151.3071 0.7928838
151.8063 0.7909421
152.3055 0.7889214
152.8046 0.7868591
153.3038 0.7850334
153.803 0.783804
154.3022 0.7833416
154.8013 0.783348
155.3005 0.7832869
155.7997 0.782498
156.2988 0.780891
156.798 0.7791201
157.2972 0.7782771
157.7964 0.7791538
158.2955 0.7823799
158.7947 0.7872508
159.2939 0.7926103
159.793 0.7967875
160.2922 0.7992019
160.7914 0.8000772
161.2906 0.800241
161.7897 0.8010853
162.2889 0.8036206
162.7881 0.8087613
163.2873 0.8158789
163.7864 0.8240038
164.2856 0.8320128
164.7848 0.8390883
165.2839 0.8447053
165.7831 0.8486802
166.2823 0.8513874
166.7815 0.8530426
167.2806 0.8542024
167.7798 0.8554177
168.279 0.8573793
168.7782 0.8608006
169.2773 0.8661122
169.7765 0.8738094
170.2757 0.8832754
170.7748 0.8932026
171.274 0.9019915
171.7732 0.9087373
172.2723 0.9133091
172.7715 0.916132
173.2707 0.9188404
173.7699 0.9228475
174.269 0.9293104
174.7682 0.9374198
175.2674 0.9463265
175.7666 0.9550273
176.2657 0.9631078
176.7649 0.9708151
177.2641 0.9790455
177.7632 0.9885174
178.2624 0.9992145
178.7616 1.010336
179.2608 1.020896
179.7599 1.030195
180.2591 1.038412
180.7583 1.046521
181.2575 1.056117
181.7566 1.067778
182.2558 1.08089
182.755 1.093965
183.2541 1.10508
183.7533 1.112986
184.2525 1.116672
184.7517 1.117741
185.2508 1.11837
185.75 1.12117
186.2492 1.126945
186.7483 1.135625
187.2475 1.146121
187.7467 1.156255
188.2459 1.164313
188.745 1.169112
189.2442 1.172022
189.7434 1.17454
190.2425 1.17854
190.7417 1.184967
191.2409 1.194233
191.7401 1.205553
192.2392 1.217415
192.7384 1.228462
193.2376 1.2381
193.7368 1.246471
194.2359 1.253852
194.7351 1.260821
195.2343 1.26772
195.7334 1.274699
196.2326 1.281794
196.7318 1.289055
197.231 1.296664
197.7301 1.304675
198.2293 1.313111
198.7285 1.32196
199.2277 1.331052
199.7268 1.340364
200.226 1.34995
200.7252 1.35978
201.2243 1.369738
201.7235 1.379502
202.2227 1.388734
202.7218 1.397088
203.221 1.404451
203.7202 1.411122
204.2194 1.41742
204.7185 1.423562
205.2177 1.429569
205.7169 1.435325
206.2161 1.44085
206.7152 1.446398
207.2144 1.452719
207.7136 1.460539
208.2127 1.47021
208.7119 1.482137
209.2111 1.495641
209.7103 1.510109
210.2094 1.524779
210.7086 1.538815
211.2078 1.551425
211.707 1.561726
212.2061 1.569697
212.7053 1.57519
213.2045 1.578429
213.7036 1.580522
214.2028 1.582448
214.702 1.585328
215.2012 1.589677
215.7003 1.59556
216.1995 1.602691
216.6987 1.610738
217.1978 1.619796
217.697 1.629954
218.1962 1.64116
218.6954 1.653098
219.1945 1.664529
219.6937 1.674247
220.1929 1.680773
220.692 1.684196
221.1912 1.685177
221.6904 1.684956
222.1896 1.685523
222.6887 1.688462
223.1879 1.694681
223.6871 1.702965
224.1863 1.712025
224.6854 1.72
225.1846 1.725693
225.6838 1.728458
226.183 1.728709
226.6821 1.728351
227.1813 1.729418
227.6805 1.733326
228.1796 1.739917
228.6788 1.748355
229.178 1.756708
229.6772 1.763323
230.1763 1.766919
230.6755 1.768038
231.1747 1.768411
231.6738 1.769607
232.173 1.77218
232.6722 1.775595
233.1714 1.778292
233.6705 1.778737
234.1697 1.776091
234.6689 1.770274
235.168 1.763747
235.6672 1.75819
236.1664 1.755041
236.6656 1.753904
237.1647 1.753805
237.6639 1.753033
238.1631 1.750304
238.6623 1.745057
239.1614 1.738188
239.6606 1.731225
240.1598 1.725553
240.6589 1.722057
241.1581 1.720597
241.6573 1.720613
242.1565 1.720595
242.6556 1.718943
243.1548 1.714083
243.654 1.705911
244.1532 1.695101
244.6523 1.682819
245.1515 1.671077
245.6507 1.661272
246.1498 1.654637
246.649 1.650011
247.1482 1.64557
247.6473 1.639031
248.1465 1.629567
248.6457 1.61723
249.1449 1.603387
249.644 1.590445
250.1432 1.580548
250.6424 1.575257
251.1416 1.573099
251.6407 1.572283
252.1399 1.570393
252.6391 1.565888
253.1382 1.557827
253.6374 1.546926
254.1366 1.534833
254.6358 1.523586
255.1349 1.514646
255.6341 1.508244
256.1333 1.504252
256.6325 1.501413
257.1316 1.498757
257.6308 1.495563
258.13 1.491847
258.6291 1.488006
259.1283 1.484591
259.6275 1.481506
260.1267 1.478233
260.6258 1.473863
261.125 1.468095
261.6242 1.461123
262.1233 1.45406
262.6225 1.448481
263.1217 1.445761
263.6209 1.445795
264.12 1.447024
264.6192 1.447666
265.1184 1.446171
265.6175 1.44232
266.1167 1.436662
266.6159 1.430844
267.1151 1.42617
267.6142 1.422968
268.1134 1.42018
268.6126 1.416716
269.1117 1.411685
269.6109 1.405542
270.1101 1.39923
270.6093 1.394141
271.1084 1.39069
271.6076 1.388318
272.1068 1.38555
272.606 1.381308
273.1051 1.375241
273.6043 1.367924
274.1035 1.360822
274.6026 1.35523
275.1018 1.351956
275.601 1.35037
276.1002 1.349285
276.5993 1.347385
277.0985 1.34406
277.5977 1.339097
278.0969 1.333044
278.596 1.326639
279.0952 1.32048
279.5944 1.314825
280.0935 1.309504
280.5927 1.30411
281.0919 1.298295
281.5911 1.291947
282.0902 1.285141
282.5894 1.278336
283.0886 1.27195
283.5878 1.266449
284.0869 1.261686
284.5861 1.257268
285.0853 1.252623
285.5844 1.247443
286.0836 1.241696
286.5828 1.23566
287.082 1.229748
287.5811 1.224182
288.0803 1.218833
288.5795 1.213245
289.0786 1.20698
289.5778 1.199985
290.077 1.19262
290.5762 1.185417
291.0753 1.178874
291.5745 1.173168
292.0737 1.16835
292.5729 1.164094
293.072 1.160155
293.5712 1.156479
294.0704 1.153031
294.5695 1.149792
295.0687 1.146715
295.5679 1.143703
296.067 1.140788
296.5662 1.138198
297.0654 1.136163
297.5646 1.1348
298.0637 1.133937
298.5629 1.133112
299.0621 1.131943
299.5613 1.130218
300.0604 1.128114
300.5596 1.125889
301.0588 1.123774
301.558 1.121708
302.0571 1.119398
302.5563 1.116733
303.0555 1.114023
303.5546 1.112098
304.0538 1.111812
304.553 1.113589
305.0521 1.117578
305.5513 1.12255
306.0505 1.127098
306.5497 1.129747
307.0488 1.130572
307.548 1.130233
308.0472 1.130082
308.5464 1.131411
309.0455 1.134985
309.5447 1.140985
310.0439 1.148124
310.543 1.154851
311.0422 1.159354
311.5414 1.161029
312.0406 1.159643
312.5397 1.156065
313.0389 1.152
313.5381 1.149242
314.0372 1.149292
314.5364 1.152526
315.0356 1.159051
315.5348 1.167239
316.0339 1.175623
316.5331 1.183059
317.0323 1.189181
317.5315 1.194116
318.0306 1.197994
318.5298 1.201155
319.029 1.203556
319.5281 1.204754
320.0273 1.204956
320.5265 1.2046
321.0257 1.204532
321.5248 1.20546
322.024 1.207736
322.5232 1.211117
323.0224 1.214596
323.5215 1.217151
324.0207 1.217979
324.5199 1.217391
325.019 1.216253
325.5182 1.215642
326.0174 1.216073
326.5166 1.217536
327.0157 1.219231
327.5149 1.220271
328.0141 1.219877
328.5133 1.218189
329.0124 1.215945
329.5116 1.214203
330.0108 1.213524
330.5099 1.213929
331.0091 1.215202
331.5083 1.216757
332.0075 1.218378
332.5066 1.220134
333.0058 1.222178
333.505 1.224505
334.0041 1.226648
334.5033 1.228066
335.0025 1.22847
335.5017 1.228193
336.0008 1.228247
336.5 1.229836
336.9992 1.233838
337.4983 1.239934
337.9975 1.247252
338.4967 1.253994
338.9959 1.258905
339.495 1.261163
339.9942 1.261143
340.4934 1.25959
340.9925 1.257079
341.4917 1.254294
341.9909 1.251645
342.4901 1.249704
342.9892 1.249013
343.4884 1.250055
343.9876 1.253253
344.4867 1.257801
344.9859 1.26295
345.4851 1.267742
345.9843 1.271658
346.4834 1.274598
346.9826 1.276846
347.4818 1.278925
347.981 1.281092
348.4801 1.283392
348.9793 1.285817
349.4785 1.288542
349.9776 1.291796
350.4768 1.295562
350.976 1.299473
351.4752 1.302695
351.9743 1.304497
352.4735 1.304284
352.9727 1.302806
353.4719 1.30145
353.971 1.301686
354.4702 1.303717
354.9694 1.306819
355.4685 1.309296
355.9677 1.30962
356.4669 1.307066
356.9661 1.301775
357.4652 1.295859
357.9644 1.291365
358.4636 1.290051
358.9628 1.291681
359.4619 1.295678
359.9611 1.300805
360.4603 1.305714
360.9594 1.309459
361.4586 1.311481
361.9578 1.311868
362.457 1.310736
362.9561 1.308858
363.4553 1.307304
363.9545 1.307194
364.4536 1.309015
364.9528 1.312485
365.452 1.316739
365.9512 1.320205
366.4503 1.321683
366.9495 1.320016
367.4487 1.31596
367.9479 1.310688
368.447 1.306013
368.9462 1.303144
369.4454 1.302727
369.9445 1.305075
370.4437 1.309217
370.9429 1.314397
371.442 1.319623
371.9412 1.324078
372.4404 1.327197
372.9396 1.328863
373.4387 1.329785
373.9379 1.330703
374.4371 1.332289
374.9363 1.334652
375.4354 1.337484
375.9346 1.340051
376.4338 1.341829
376.933 1.342642
377.4321 1.343162
377.9313 1.344318
378.4305 1.347014
378.9296 1.350877
379.4288 1.355032
379.928 1.358013
380.4271 1.359049
380.9263 1.357982
381.4255 1.355356
381.9247 1.35275
382.4238 1.351467
382.923 1.35273
383.4222 1.3564
383.9214 1.362004
384.4205 1.368763
384.9197 1.375782
385.4189 1.382473
385.918 1.388419
386.4172 1.393528
386.9164 1.397678
387.4156 1.400926
387.9147 1.403353
388.4139 1.404719
388.9131 1.405056
389.4122 1.404657
389.9114 1.404274
390.4106 1.405191
390.9098 1.408601
391.4089 1.415958
391.9081 1.426357
392.4073 1.43823
392.9065 1.448606
393.4056 1.454999
393.9048 1.455875
394.404 1.451879
394.9031 1.446619
395.4023 1.443384
395.9015 1.445319
396.4007 1.452568
396.8998 1.464323
397.399 1.478035
397.8982 1.490972
398.3974 1.501389
398.8965 1.509253
399.3957 1.51616
399.8949 1.524172
400.394 1.534612
400.8932 1.54746
401.3924 1.561901
401.8916 1.576032
402.3907 1.588403
402.8899 1.597835
403.3891 1.60519
403.8883 1.611892
404.3874 1.620219
404.8866 1.631444
405.3858 1.64553
405.8849 1.661463
406.3841 1.677167
406.8833 1.691277
407.3825 1.703219
407.8816 1.714154
408.3808 1.725692
408.88 1.739681
409.3791 1.756603
409.8783 1.776262
410.3775 1.797104
410.8767 1.817377
411.3758 1.836031
411.875 1.853141
412.3742 1.869593
412.8733 1.886557
413.3725 1.904899
413.8717 1.924729
414.3709 1.945627
414.87 1.966384
415.3692 1.986067
415.8684 2.003959
416.3675 2.021128
416.8667 2.038964
417.3659 2.059618
417.8651 2.083743
418.3642 2.111419
418.8634 2.141755
419.3626 2.172605
419.8617 2.202509
420.3609 2.230773
420.8601 2.258273
421.3593 2.286618
421.8584 2.317497
422.3576 2.351038
422.8568 2.386661
423.356 2.422664
423.8551 2.457496
424.3543 2.490014
424.8535 2.520449
425.3526 2.549897
425.8518 2.579975
426.351 2.61221
426.8502 2.647493
427.3493 2.686732
427.8485 2.728522
428.3477 2.771548
428.8469 2.814017
429.346 2.854548
429.8452 2.892403
430.3444 2.927392
430.8435 2.961029
431.3427 2.994799
431.8419 3.030535
432.3411 3.069038
432.8402 3.110833
433.3394 3.155498
433.8386 3.201621
434.3378 3.24816
434.8369 3.294033
435.3361 3.338628
435.8353 3.38144
436.3344 3.422554
436.8336 3.46236
437.3328 3.501078
437.832 3.53909
438.3311 3.576551
438.8303 3.61334
439.3295 3.649524
439.8286 3.685178
440.3278 3.720175
440.827 3.754305
441.3262 3.786913
441.8253 3.816474
442.3245 3.842454
442.8237 3.864222
443.3229 3.881518
443.822 3.895887
444.3212 3.908249
444.8204 3.919177
445.3195 3.928566
445.8187 3.935095
446.3179 3.93709
446.817 3.933997
447.3162 3.925031
447.8154 3.910952
448.3146 3.893315
448.8137 3.872923
449.3129 3.850572
449.8121 3.826136
450.3113 3.797896
450.8104 3.764257
451.3096 3.723866
451.8088 3.675089
452.308 3.620095
452.8071 3.561065
453.3063 3.500704
453.8055 3.441727
454.3046 3.385244
454.8038 3.331189
455.303 3.277666
455.8021 3.222898
456.3013 3.165207
456.8005 3.104549
457.2997 3.041087
457.7988 2.975737
458.298 2.909584
458.7972 2.843487
459.2964 2.778564
459.7955 2.715734
460.2947 2.65608
460.7939 2.599471
461.293 2.544759
461.7922 2.490381
462.2914 2.434823
462.7906 2.377825
463.2897 2.320585
463.7889 2.265569
464.2881 2.214463
464.7872 2.168647
465.2864 2.12625
465.7856 2.085606
466.2848 2.045246
466.7839 2.004843
467.2831 1.96538
467.7823 1.92881
468.2815 1.895853
468.7806 1.866654
469.2798 1.84007
469.779 1.814007
470.2781 1.787096
470.7773 1.759018
471.2765 1.730484
471.7757 1.702422
472.2748 1.675494
472.774 1.649669
473.2732 1.624644
473.7724 1.599844
474.2715 1.575043
474.7707 1.550566
475.2699 1.527122
475.769 1.505457
476.2682 1.486647
476.7674 1.470255
477.2666 1.45539
477.7657 1.440742
478.2649 1.425014
478.7641 1.407659
479.2633 1.388996
479.7624 1.370623
480.2616 1.354294
480.7608 1.34175
481.2599 1.332751
481.7591 1.326454
482.2583 1.320772
482.7575 1.313598
483.2566 1.30343
483.7558 1.290558
484.255 1.276521
484.7541 1.263083
485.2533 1.251697
485.7525 1.242732
486.2517 1.2361
486.7508 1.230597
487.25 1.225213
487.7492 1.219283
488.2483 1.212947
488.7475 1.206779
489.2467 1.201778
489.7459 1.198266
490.245 1.19602
490.7442 1.194088
491.2434 1.191249
491.7425 1.186704
492.2417 1.180225
492.7409 1.172872
493.2401 1.165832
493.7392 1.160315
494.2384 1.156466
494.7376 1.153823
495.2367 1.15117
495.7359 1.147492
496.2351 1.142327
496.7343 1.136356
497.2334 1.130843
497.7326 1.127074
498.2318 1.125371
498.731 1.125285
499.2301 1.126139
499.7293 1.127033
500.2285 1.127602
500.7276 1.127812
501.2268 1.127918
501.726 1.128003
502.2252 1.127892
502.7243 1.12738
503.2235 1.126417
503.7227 1.125353
504.2219 1.124869
504.721 1.125505
505.2202 1.127399
505.7194 1.12986
506.2185 1.132053
506.7177 1.133166
507.2169 1.133129
507.7161 1.132338
508.2152 1.131762
508.7144 1.132211
509.2136 1.134235
509.7128 1.137485
510.2119 1.141148
510.7111 1.144204
511.2103 1.145903
511.7094 1.146072
512.2086 1.144604
512.7078 1.142046
513.207 1.138794
513.7061 1.135285
514.2053 1.132168
514.7045 1.130121
515.2036 1.130174
515.7028 1.132414
516.202 1.136707
516.7012 1.142129
517.2003 1.146981
517.6995 1.149659
518.1987 1.148951
518.6979 1.145404
519.197 1.140202
519.6962 1.135216
520.1954 1.131829
520.6945 1.130954
521.1937 1.132397
521.6929 1.135362
522.192 1.139182
522.6912 1.143063
523.1904 1.146442
523.6896 1.148494
524.1887 1.148654
524.6879 1.146519
525.1871 1.141709
525.6863 1.135512
526.1854 1.129475
526.6846 1.125862
527.1838 1.125467
527.683 1.128434
528.1821 1.133989
528.6813 1.140057
529.1805 1.145025
529.6796 1.147547
530.1788 1.147685
530.678 1.145828
531.1771 1.14305
531.6763 1.140525
532.1755 1.139089
532.6747 1.138929
533.1738 1.139519
533.673 1.14005
534.1722 1.139782
534.6714 1.138742
535.1705 1.13764
535.6697 1.137595
536.1689 1.139252
536.668 1.142727
537.1672 1.14667
537.6664 1.149764
538.1656 1.150783
538.6647 1.150457
539.1639 1.15024
539.6631 1.152512
540.1622 1.15814
540.6614 1.16692
541.1606 1.17704
541.6598 1.185822
542.1589 1.191421
542.6581 1.193609
543.1573 1.194083
543.6565 1.194562
544.1556 1.196414
544.6548 1.199677
545.154 1.203649
545.6531 1.20714
546.1523 1.209512
546.6515 1.210747
547.1507 1.211845
547.6498 1.21398
548.149 1.218594
548.6482 1.225885
549.1473 1.235357
549.6465 1.245769
550.1457 1.254957
550.6449 1.26135
551.144 1.263702
551.6432 1.263515
552.1424 1.262674
552.6416 1.263945
553.1407 1.268714
553.6399 1.277283
554.1391 1.288357
554.6382 1.299519
555.1374 1.309092
555.6366 1.316666
556.1358 1.323478
556.6349 1.331255
557.1341 1.341297
557.6333 1.353418
558.1324 1.366545
558.6316 1.378875
559.1308 1.38948
559.63 1.398167
560.1291 1.405923
560.6283 1.413552
561.1275 1.421403
561.6267 1.429189
562.1258 1.436524
562.625 1.443233
563.1242 1.449965
563.6233 1.457599
564.1225 1.46727
564.6217 1.478934
565.1209 1.492224
565.62 1.506238
566.1192 1.520003
566.6184 1.533144
567.1176 1.545985
567.6167 1.559373
568.1159 1.574236
568.6151 1.591044
569.1142 1.609414
569.6134 1.628668
570.1126 1.647671
570.6118 1.665665
571.1109 1.682338
571.6101 1.698465
572.1093 1.715178
572.6084 1.733896
573.1076 1.754804
573.6068 1.777223
574.106 1.799563
574.6051 1.820127
575.1043 1.838102
575.6035 1.853568
576.1027 1.868529
576.6018 1.884772
577.101 1.903652
577.6002 1.92454
578.0993 1.946331
578.5985 1.967539
579.0977 1.987488
579.5969 2.006281
580.096 2.024854
580.5952 2.044252
581.0944 2.065402
581.5935 2.088693
582.0927 2.114007
582.5919 2.141446
583.0911 2.170482
583.5902 2.200366
584.0894 2.230145
584.5886 2.258947
585.0878 2.286568
585.5869 2.313613
586.0861 2.341679
586.5853 2.372069
587.0844 2.406054
587.5836 2.442589
588.0828 2.480584
588.582 2.51868
589.0811 2.556072
589.5803 2.592725
590.0795 2.629112
590.5786 2.665735
591.0778 2.702721
591.577 2.739821
592.0762 2.776708
592.5753 2.813278
593.0745 2.849849
593.5737 2.887006
594.0729 2.925672
594.572 2.966657
595.0712 3.010466
595.5704 3.058069
596.0695 3.108859
596.5687 3.161583
597.0679 3.214191
597.567 3.264256
598.0662 3.310159
598.5654 3.350418
599.0646 3.386976
599.5637 3.421885
600.0629 3.457956
600.5621 3.496868
601.0613 3.539
601.5604 3.583063
602.0596 3.626032
602.5588 3.664694
603.058 3.696049
603.5571 3.720424
604.0563 3.739078
604.5555 3.755897
605.0546 3.775129
605.5538 3.800075
606.053 3.830517
606.5521 3.862624
607.0513 3.89074
607.5505 3.910037
608.0497 3.91881
608.5488 3.916233
609.048 3.906439
609.5472 3.892655
610.0464 3.876315
610.5455 3.85778
611.0447 3.836111
611.5439 3.809787
612.043 3.780041
612.5422 3.748215
613.0414 3.71584
613.5406 3.683473
614.0397 3.650084
614.5389 3.613434
615.0381 3.572442
615.5372 3.526623
616.0364 3.477156
616.5356 3.426363
617.0348 3.375809
617.5339 3.326189
618.0331 3.277281
618.5323 3.228756
619.0315 3.180311
619.5306 3.131728
620.0298 3.082407
620.529 3.031481
621.0281 2.9782
621.5273 2.921933
622.0265 2.864085
622.5257 2.80656
623.0248 2.752145
623.524 2.701688
624.0232 2.654977
624.5223 2.610697
625.0215 2.56648
625.5207 2.521221
626.0199 2.474996
626.519 2.429096
627.0182 2.384759
627.5174 2.342578
628.0166 2.301815
628.5157 2.261783
629.0149 2.222421
629.5141 2.184605
630.0132 2.150234
630.5124 2.120489
631.0116 2.094889
631.5108 2.072129
632.0099 2.049336
632.5091 2.024313
633.0083 1.995346
633.5074 1.963173
634.0066 1.92924
634.5058 1.895434
635.005 1.863315
635.5041 1.833621
636.0033 1.806937
636.5025 1.782329
637.0017 1.75918
637.5008 1.736762
638 1.714323
638.4992 1.691596
638.9983 1.668782
639.4975 1.646511
639.9967 1.625667
640.4959 1.606918
640.995 1.590038
641.4942 1.574657
641.9934 1.559921
642.4926 1.545111
642.9917 1.529826
643.4909 1.51404
643.9901 1.497888
644.4892 1.481438
644.9884 1.464838
645.4876 1.448344
645.9868 1.432674
646.4859 1.418591
646.9851 1.406768
647.4843 1.398003
647.9834 1.391264
648.4826 1.385424
648.9818 1.378818
649.481 1.370448
649.9801 1.360072
650.4793 1.348382
650.9785 1.336859
651.4777 1.326618
651.9768 1.318113
652.476 1.310619
652.9752 1.303184
653.4743 1.294993
653.9735 1.286108
654.4727 1.277121
654.9719 1.26875
655.471 1.261067
655.9702 1.253411
656.4694 1.244687
656.9685 1.234353
657.4677 1.222704
657.9669 1.211593
658.4661 1.202983
658.9652 1.199267
659.4644 1.19986
659.9636 1.20335
660.4628 1.207162
660.9619 1.20871
661.4611 1.206587
661.9603 1.20032
662.4594 1.191664
662.9586 1.182027
663.4578 1.172815
663.957 1.164685
664.4561 1.157919
664.9553 1.152507
665.4545 1.14816
665.9536 1.144706
666.4528 1.141589
666.952 1.138043
667.4512 1.133113
667.9503 1.126421
668.4495 1.118311
668.9487 1.109682
669.4479 1.102005
669.947 1.096359
670.4462 1.09373
670.9454 1.093303
671.4445 1.093919
671.9437 1.093888
672.4429 1.092076
672.942 1.08814
673.4412 1.082606
673.9404 1.077196
674.4396 1.073394
674.9387 1.072337
675.4379 1.07334
675.9371 1.075105
676.4363 1.075564
676.9354 1.073399
677.4346 1.067982
677.9338 1.060237
678.433 1.052072
678.9321 1.045421
679.4313 1.041484
679.9305 1.04016
680.4296 1.04084
680.9288 1.041994
681.428 1.042505
681.9271 1.041594
682.4263 1.039513
682.9255 1.036789
683.4247 1.033977
683.9238 1.031344
684.423 1.028786
684.9222 1.026002
685.4214 1.022936
685.9205 1.019845
686.4197 1.017365
686.9189 1.015851
687.418 1.015265
687.9172 1.014807
688.4164 1.013312
688.9156 1.00975
689.4147 1.003965
689.9139 0.9970994
690.4131 0.9907168
690.9122 0.9863048
691.4114 0.9841641
691.9106 0.9838553
692.4098 0.9838434
692.9089 0.9828842
693.4081 0.9801669
693.9073 0.9761458
694.4065 0.9716151
694.9056 0.967396
695.4048 0.9638145
695.904 0.9607767
696.4031 0.9580324
696.9023 0.9552921
697.4015 0.9524946
697.9007 0.9496738
698.3998 0.9468846
698.899 0.9441736
699.3982 0.9416418
699.8973 0.9393635
700.3965 0.9373388
700.8957 0.9352498
701.3949 0.9325734
701.894 0.9287137
702.3932 0.9235686
702.8924 0.9178025
703.3916 0.9125085
703.8907 0.9087582
704.3899 0.906812
704.8891 0.9063437
705.3882 0.9060658
705.8874 0.9049514
706.3866 0.9023439
706.8858 0.8987902
707.3849 0.8950756
707.8841 0.8919758
708.3833 0.8894381
708.8824 0.8868896
709.3816 0.8832617
709.8808 0.8781262
710.38 0.8715182
710.8791 0.864146
711.3783 0.8572185
711.8775 0.8517244
712.3767 0.8483359
712.8758 0.8467111
713.375 0.8464253
713.8742 0.8466777
714.3733 0.8467175
714.8725 0.8459839
715.3717 0.8442048
715.8709 0.841394
716.37 0.8374373
716.8692 0.8324899
717.3684 0.826799
717.8676 0.8207415
718.3667 0.8150802
718.8659 0.8105609
719.3651 0.8081266
719.8642 0.8074888
720.3634 0.8078644
720.8626 0.8076191
721.3618 0.8052645
721.8609 0.8000212
722.3601 0.7919891
722.8593 0.7831191
723.3584 0.7752279
723.8576 0.7699712
724.3568 0.7671934
724.856 0.7660521
725.3551 0.7649033
725.8543 0.7625047
726.3535 0.7583119
726.8527 0.7527823
727.3518 0.7468337
727.851 0.7411695
728.3502 0.7361387
728.8493 0.7318171
729.3485 0.7285962
729.8477 0.7268917
730.3469 0.7270428
730.846 0.7292439
731.3452 0.7322521
731.8444 0.7345647
732.3435 0.7341321
732.8427 0.7306799
733.3419 0.7247411
733.8411 0.7177798
734.3402 0.7116465
734.8394 0.7072095
735.3386 0.7044551
735.8378 0.7023115
736.3369 0.7001521
736.8361 0.6980586
737.3353 0.6967338
737.8344 0.6969327
738.3336 0.6984929
738.8328 0.700073
739.332 0.6997887
739.8311 0.6964017
740.3303 0.690335
740.8295 0.6830162
741.3286 0.6767322
741.8278 0.6727436
742.327 0.6713334
742.8262 0.6708849
743.3253 0.6699124
743.8245 0.6674567
744.3237 0.6642996
744.8229 0.6617142
745.322 0.6612353
745.8212 0.6626083
746.3204 0.6648257
746.8195 0.6660816
747.3187 0.6653609
747.8179 0.6625865
748.317 0.6587977
748.8162 0.6555507
749.3154 0.6538111
749.8146 0.6536336
750.3137 0.6540748
750.8129 0.6540811
751.3121 0.652801
751.8113 0.6501094
752.3104 0.6461226
752.8096 0.6414944
753.3088 0.6368741
753.808 0.6328619
754.3071 0.6296841
754.8063 0.6272124
755.3055 0.6250539
755.8046 0.6225994
756.3038 0.6195491
756.803 0.6159699
757.3021 0.6125636
757.8013 0.6099887
758.3005 0.6088104
758.7997 0.6085854
759.2988 0.6087443
759.798 0.6086893
760.2972 0.6083779
760.7964 0.6082299
761.2955 0.6087919
761.7947 0.6099576
762.2939 0.6109738
762.793 0.6105927
763.2922 0.6082088
763.7914 0.6038755
764.2906 0.5989973
764.7897 0.5951766
765.2889 0.593746
765.7881 0.5944424
766.2872 0.5960512
766.7864 0.5969631
767.2856 0.596233
767.7848 0.593944
768.2839 0.5908729
768.7831 0.5882654
769.2823 0.5867193
769.7815 0.5863174
770.2806 0.5861892
770.7798 0.5855974
771.279 0.5839244
771.7781 0.5813776
772.2773 0.5784188
772.7765 0.5758583
773.2757 0.5743407
773.7748 0.574379
774.274 0.5760334
774.7732 0.57867
775.2723 0.5815134
775.7715 0.5836212
776.2707 0.5845292
776.7699 0.5841093
777.269 0.5829507
777.7682 0.5816774
778.2674 0.5805508
778.7666 0.5792424
779.2657 0.5771897
779.7649 0.5738554
780.2641 0.5698465
780.7632 0.5662955
781.2624 0.5650762
781.7616 0.5665993
782.2608 0.5704002
782.7599 0.5747284
783.2591 0.5773506
783.7583 0.5769393
784.2574 0.5734634
784.7566 0.5690389
785.2558 0.5658214
785.755 0.5655504
786.2541 0.5678876
786.7533 0.571603
787.2525 0.5746603
787.7517 0.5758556
788.2508 0.5749092
788.75 0.5729547
789.2492 0.5713692
789.7483 0.5711917
790.2475 0.5722966
790.7467 0.5738698
791.2459 0.5748228
791.745 0.5746055
792.2442 0.5733532
792.7434 0.5716851
793.2426 0.5704763
793.7417 0.5701352
794.2409 0.5706804
794.7401 0.5714122
795.2392 0.5717571
795.7384 0.5713032
796.2376 0.5703174
796.7368 0.5692474
797.2359 0.5686301
797.7351 0.5685793
798.2343 0.5688843
798.7334 0.5690165
799.2326 0.5685824
799.7318 0.5674483
800.231 0.5659789
800.7301 0.5647438
801.2293 0.5643072
801.7285 0.5647689
802.2277 0.5657841
802.7268 0.5667392
803.226 0.567015
803.7252 0.566382
804.2243 0.5649277
804.7235 0.5633666
805.2227 0.5622958
805.7219 0.5622336
806.221 0.5628311
806.7202 0.5635422
807.2194 0.5635903
807.7185 0.5627266
808.2177 0.5610643
808.7169 0.5590812
809.2161 0.5572786
809.7152 0.5558032
810.2144 0.5544968
810.7136 0.5531788
811.2128 0.5520237
811.7119 0.5516017
812.2111 0.5523788
812.7103 0.554603
813.2094 0.5576013
813.7086 0.5603102
814.2078 0.5615994
814.707 0.5612057
815.2061 0.5595806
815.7053 0.5574138
816.2045 0.5553716
816.7036 0.5535206
817.2028 0.5515392
817.702 0.5492534
818.2012 0.5469662
818.7003 0.5457242
819.1995 0.5463303
819.6987 0.5492608
820.1979 0.5542946
820.697 0.5599338
821.1962 0.5648052
821.6954 0.567684
822.1945 0.568569
822.6937 0.5678215
823.1929 0.5663429
823.692 0.5649286
824.1912 0.5638479
824.6904 0.5628153
825.1896 0.5613259
825.6887 0.5589054
826.1879 0.5557236
826.6871 0.5524573
827.1863 0.5502264
827.6854 0.5497588
828.1846 0.5511108
828.6838 0.5537507
829.183 0.5561585
829.6821 0.5571574
830.1813 0.555689
830.6805 0.5525619
831.1796 0.548924
831.6788 0.5465721
832.178 0.5464888
832.6771 0.5489803
833.1763 0.5533693
833.6755 0.5579317
834.1747 0.5611146
834.6738 0.5616608
835.173 0.5596103
835.6722 0.5552916
836.1714 0.5498932
836.6705 0.544812
837.1697 0.5414689
837.6689 0.5407485
838.168 0.5426645
838.6672 0.5468381
839.1664 0.551564
839.6656 0.5551457
840.1647 0.555785
840.6639 0.5535622
841.1631 0.549544
841.6622 0.5457245
842.1614 0.5438567
842.6606 0.544448
843.1598 0.546684
843.6589 0.548218
844.1581 0.5471829
844.6573 0.5424271
845.1565 0.5353597
845.6556 0.5278547
846.1548 0.5222375
846.654 0.5194382
847.1531 0.5194977
847.6523 0.5211456
848.1515 0.5226839
848.6507 0.5228154
849.1498 0.5211275
849.649 0.5181959
850.1482 0.5150195
850.6473 0.5128329
851.1465 0.5122959
851.6457 0.5136628
852.1449 0.515908
852.644 0.5178073
853.1432 0.5178312
853.6424 0.5155871
854.1416 0.5112948
854.6407 0.5056754
855.1399 0.5002071
855.6391 0.4959315
856.1382 0.4938665
856.6374 0.4938788
857.1366 0.4957558
857.6358 0.4988313
858.1349 0.5020038
858.6341 0.5043992
859.1333 0.5054206
859.6324 0.5052176
860.1316 0.504051
860.6308 0.5023418
861.13 0.5003089
861.6291 0.4978968
862.1283 0.4952246
862.6275 0.4927342
863.1267 0.4912871
863.6258 0.4913902
864.125 0.4929038
864.6242 0.4951198
865.1233 0.4968602
865.6225 0.497582
866.1217 0.4974114
866.6209 0.4973721
867.12 0.4981133
867.6192 0.4996023
868.1184 0.5007284
868.6176 0.5003804
869.1167 0.4979096
869.6159 0.4943346
870.1151 0.491075
870.6142 0.4896334
871.1134 0.4901407
871.6126 0.4919428
872.1118 0.4935912
872.6109 0.4940255
873.1101 0.4927894
873.6093 0.4904388
874.1084 0.4879149
874.6076 0.4861328
875.1068 0.4855972
875.606 0.4863787
876.1051 0.4885225
876.6043 0.4915154
877.1035 0.4948572
877.6027 0.4978999
878.1018 0.5000834
878.601 0.5009874
879.1002 0.5000609
879.5993 0.4976594
880.0985 0.4941649
880.5977 0.4904439
881.0969 0.4876201
881.596 0.4866008
882.0952 0.4877676
882.5944 0.4901089
883.0935 0.4922517
883.5927 0.4926315
884.0919 0.4908591
884.5911 0.487383
885.0902 0.483828
885.5894 0.4817254
886.0886 0.4821861
886.5878 0.4848816
887.0869 0.4886936
887.5861 0.4923444
888.0853 0.4948068
888.5844 0.4956729
889.0836 0.4945986
889.5828 0.4920933
890.082 0.4886598
890.5811 0.4850352
891.0803 0.482148
891.5795 0.4806856
892.0786 0.4812196
892.5778 0.4831208
893.077 0.4856927
893.5762 0.4879938
894.0753 0.4894684
894.5745 0.4899524
895.0737 0.4896788
895.5729 0.4891293
896.072 0.4885866
896.5712 0.4881903
897.0704 0.487963
897.5695 0.4880302
898.0687 0.4886161
898.5679 0.4899069
899.067 0.4920455
899.5662 0.4946112
900.0654 0.4968945
900.5646 0.4978339
901.0637 0.496977
901.5629 0.4944692
902.0621 0.4909963
902.5613 0.4879274
903.0604 0.4861507
903.5596 0.486229
904.0588 0.487355
904.558 0.4887487
905.0571 0.4897027
905.5563 0.4902536
906.0555 0.4908663
906.5546 0.4921429
907.0538 0.4941134
907.553 0.4963696
908.0521 0.4980872
908.5513 0.4986859
909.0505 0.4977799
909.5497 0.4955391
910.0488 0.4924515
910.548 0.4888887
911.0472 0.4853093
911.5464 0.4820797
912.0455 0.4796595
912.5447 0.478216
913.0439 0.4776938
913.543 0.4779234
914.0422 0.4783815
914.5414 0.4787651
915.0406 0.4789868
915.5397 0.479296
916.0389 0.4800161
916.5381 0.4815075
917.0372 0.483618
917.5364 0.4859969
918.0356 0.4878986
918.5348 0.4886526
919.0339 0.4876875
919.5331 0.4849576
920.0323 0.4813771
920.5315 0.4781509
921.0306 0.4766126
921.5298 0.477188
922.029 0.4797109
922.5281 0.482885
923.0273 0.4854161
923.5265 0.4864376
924.0257 0.486324
924.5248 0.4860067
925.024 0.4864506
925.5232 0.4876791
926.0223 0.4889383
926.5215 0.4888975
927.0207 0.4871686
927.5199 0.4841955
928.019 0.4813873
928.5182 0.4801905
929.0174 0.4813095
929.5166 0.4845364
930.0157 0.4882864
930.5149 0.4912092
931.0141 0.4922653
931.5132 0.4916074
932.0124 0.4895656
932.5116 0.4866862
933.0108 0.4834057
933.5099 0.4799098
934.0091 0.4765248
934.5083 0.4736979
935.0074 0.4720387
935.5066 0.4716375
936.0058 0.472016
936.505 0.4722864
937.0041 0.4715723
937.5033 0.4696377
938.0025 0.4668855
938.5017 0.4645629
939.0008 0.4636896
939.5 0.4652798
939.9992 0.4686906
940.4983 0.4731463
940.9975 0.4775073
941.4967 0.4809112
941.9959 0.4829374
942.495 0.4835017
942.9942 0.4831356
943.4934 0.4822371
943.9926 0.4812874
944.4917 0.4807154
944.9909 0.4809443
945.4901 0.4822051
945.9892 0.4842961
946.4884 0.4867471
946.9876 0.4886654
947.4868 0.4893183
947.9859 0.4880994
948.4851 0.4854847
948.9843 0.4824213
949.4834 0.4801156
949.9826 0.4791501
950.4818 0.4793314
950.981 0.4798624
951.4801 0.4797784
951.9793 0.4788345
952.4785 0.4776069
952.9777 0.4772015
953.4768 0.478268
953.976 0.4805447
954.4752 0.4824985
954.9743 0.4825865
955.4735 0.4799302
955.9727 0.4756711
956.4719 0.4717338
956.971 0.4703882
957.4702 0.4722967
957.9694 0.4770414
958.4685 0.4824453
958.9677 0.4865037
959.4669 0.487835
959.9661 0.4867641
960.4652 0.4844304
960.9644 0.4819962
961.4636 0.4801911
961.9628 0.4790051
962.4619 0.4780625
962.9611 0.4769179
963.4603 0.4754908
963.9594 0.4740388
964.4586 0.4729862
964.9578 0.472642
965.457 0.4732098
965.9561 0.4743966
966.4553 0.4759495
966.9545 0.4775428
967.4536 0.4788902
967.9528 0.4797184
968.452 0.4797404
968.9512 0.4788764
969.4503 0.4769984
969.9495 0.4742726
970.4487 0.4711223
970.9479 0.4680414
971.447 0.4656287
971.9462 0.4643593
972.4454 0.4649214
972.9445 0.4674568
973.4437 0.471749
973.9429 0.4772309
974.442 0.482406
974.9412 0.4859127
975.4404 0.4861616
975.9396 0.483649
976.4387 0.4793949
976.9379 0.4751907
977.4371 0.472515
977.9363 0.4718502
978.4354 0.4726856
978.9346 0.4735873
979.4338 0.4735633
979.933 0.472214
980.4321 0.4700665
980.9313 0.4676749
981.4305 0.4655009
981.9296 0.4637069
982.4288 0.462534
982.928 0.4623532
983.4271 0.4634418
983.9263 0.4659607
984.4255 0.469129
984.9247 0.4718973
985.4238 0.4733002
985.923 0.4735044
986.4222 0.4733214
986.9214 0.4738886
987.4205 0.4755146
987.9197 0.4776692
988.4189 0.4789983
988.918 0.4786107
989.4172 0.4763311
989.9164 0.4728166
990.4156 0.4694579
990.9147 0.4671388
991.4139 0.4662002
991.9131 0.4660739
992.4122 0.4662115
992.9114 0.4661394
993.4106 0.4657354
993.9098 0.4650491
994.4089 0.4642939
994.9081 0.4637445
995.4073 0.4637886
995.9065 0.4646593
996.4056 0.4662136
996.9048 0.4679897
997.404 0.4692646
997.9031 0.4696318
998.4023 0.4690142
998.9015 0.4680714
999.4007 0.4673426
999.8998 0.4670928
1000.399 0.4669247
1000.898 0.4663798
1001.397 0.4651667
1001.896 0.4637126
1002.396 0.4625614
1002.895 0.4620972
1003.394 0.4619374
1003.893 0.4614114
1004.392 0.4599789
1004.892 0.4580431
1005.391 0.4566944
1005.89 0.4573021
1006.389 0.460242
1006.888 0.4651976
1007.387 0.4705749
1007.887 0.4749206
1008.386 0.4770692
1008.885 0.4769488
1009.384 0.4749716
1009.883 0.4713964
1010.383 0.4669785
1010.882 0.4624063
1011.381 0.4587135
1011.88 0.4565824
1012.379 0.4562423
1012.878 0.4574074
1013.378 0.4587311
1013.877 0.4592432
1014.376 0.4583777
1014.875 0.456799
1015.374 0.4554245
1015.873 0.455243
1016.372 0.4563801
1016.872 0.4585838
1017.371 0.4611561
1017.87 0.4634087
1018.369 0.4647947
1018.868 0.4649617
1019.367 0.4639276
1019.867 0.4618899
1020.366 0.4597314
1020.865 0.458421
1021.364 0.4588701
1021.863 0.4607787
1022.363 0.4631363
1022.862 0.4644467
1023.361 0.4640268
1023.86 0.4621769
1024.359 0.4600443
1024.858 0.4589281
1025.358 0.4592292
1025.857 0.460424
1026.356 0.4611992
1026.855 0.460756
1027.354 0.4591639
1027.853 0.4575369
1028.353 0.4568137
1028.852 0.4573344
1029.351 0.4584055
1029.85 0.4591419
1030.349 0.4589521
1030.849 0.4581218
1031.348 0.4574374
1031.847 0.4577338
1032.346 0.4591384
1032.845 0.4611302
1033.344 0.4625019
1033.843 0.4623101
1034.343 0.459844
1034.842 0.4558838
1035.341 0.4516326
1035.84 0.4487903
1036.339 0.4481595
1036.839 0.4496154
1037.338 0.4520956
1037.837 0.4537679
1038.336 0.4534352
1038.835 0.4506353
1039.334 0.4467663
1039.834 0.443446
1040.333 0.4423422
1040.832 0.4435705
1041.331 0.4464961
1041.83 0.4496315
1042.33 0.4518041
1042.829 0.4525587
1043.328 0.4523846
1043.827 0.4520507
1044.326 0.4519639
1044.825 0.4520007
1045.324 0.451868
1045.824 0.4515974
1046.323 0.4517665
1046.822 0.4529678
1047.321 0.4555729
1047.82 0.4587395
1048.32 0.4613997
1048.819 0.4622895
1049.318 0.4615901
1049.817 0.4599948
1050.316 0.458621
1050.815 0.4580263
1051.315 0.458014
1051.814 0.45789
1052.313 0.4573301
1052.812 0.4568175
1053.311 0.4575758
1053.81 0.4603042
1054.31 0.4648072
1054.809 0.4693406
1055.308 0.4720043
1055.807 0.4713453
1056.306 0.4678321
1056.805 0.4631971
1057.305 0.4593743
1057.804 0.4574207
1058.303 0.4570766
1058.802 0.4574131
1059.301 0.4573202
1059.801 0.4565307
1060.3 0.4554631
1060.799 0.4548646
1061.298 0.4550127
1061.797 0.4556426
1062.296 0.4559809
1062.795 0.4555851
1063.295 0.4544933
1063.794 0.4533329
1064.293 0.4526325
1064.792 0.4527066
1065.291 0.4534033
1065.791 0.4546276
1066.29 0.4563115
1066.789 0.4583035
1067.288 0.4602295
1067.787 0.4613288
1068.286 0.4609759
1068.786 0.458747
1069.285 0.4553622
1069.784 0.4519674
1070.283 0.4496951
1070.782 0.4485526
1071.282 0.4477483
1071.781 0.446172
1072.28 0.4435426
1072.779 0.4403907
1073.278 0.4379876
1073.777 0.4371376
1074.276 0.4380156
1074.776 0.4402325
1075.275 0.4427958
1075.774 0.4451928
1076.273 0.4471467
1076.772 0.4486295
1077.272 0.4494857
1077.771 0.449604
1078.27 0.4492731
1078.769 0.4490293
1079.268 0.4494419
1079.767 0.4505621
1080.267 0.4520523
1080.766 0.4533326
1081.265 0.4542016
1081.764 0.4548848
1082.263 0.4558218
1082.762 0.4570979
1083.262 0.4583115
1083.761 0.4588806
1084.26 0.458572
1084.759 0.4574652
1085.258 0.4560573
1085.757 0.4543835
1086.257 0.4519844
1086.756 0.4487859
1087.255 0.4453154
1087.754 0.4430971
1088.253 0.4432612
1088.753 0.4461637
1089.252 0.4505977
1089.751 0.4543142
1090.25 0.455577
1090.749 0.4540862
1091.248 0.451279
1091.747 0.4487576
1092.247 0.4475595
1092.746 0.447487
1093.245 0.4478938
1093.744 0.4482272
1094.243 0.4485609
1094.743 0.4491985
1095.242 0.4500108
1095.741 0.450462
1096.24 0.4497751
1096.739 0.448115
1097.238 0.4462476
1097.738 0.4455983
1098.237 0.4467437
1098.736 0.4495085
1099.235 0.4527988
1099.734 0.4551408
1100.233 0.4555598
1100.733 0.4538678
1101.232 0.4510411
1101.731 0.4479797
1102.23 0.4456639
1102.729 0.4446065
1103.228 0.4451823
1103.728 0.4472235
1104.227 0.4500469
1104.726 0.4527934
1105.225 0.4545186
1105.724 0.4547743
1106.224 0.4534094
1106.723 0.4512003
1107.222 0.4490207
1107.721 0.4476463
1108.22 0.4470628
1108.719 0.4468268
1109.218 0.4461892
1109.718 0.4447826
1110.217 0.4427544
1110.716 0.4409035
1111.215 0.4401943
1111.714 0.4413035
1112.214 0.4443715
1112.713 0.4482777
1113.212 0.4518042
1113.711 0.4536551
1114.21 0.4535695
1114.709 0.4518573
1115.209 0.4495016
1115.708 0.4475157
1116.207 0.4466542
1116.706 0.4471567
1117.205 0.4487878
1117.705 0.4512626
1118.204 0.4539407
1118.703 0.4562132
1119.202 0.4573471
1119.701 0.4571284
1120.2 0.4557085
1120.699 0.4535092
1121.199 0.4514209
1121.698 0.4499674
1122.197 0.4495685
1122.696 0.4500133
1123.195 0.4511765
1123.695 0.4529093
1124.194 0.4547697
1124.693 0.456167
1125.192 0.4562115
1125.691 0.4546384
1126.19 0.4517007
1126.69 0.4487364
1127.189 0.4473685
1127.688 0.4486511
1128.187 0.4519011
1128.686 0.4551911
1129.185 0.456368
1129.685 0.4545543
1130.184 0.4505748
1130.683 0.4460612
1131.182 0.4427183
1131.681 0.4409954
1132.18 0.4404734
1132.68 0.4400142
1133.179 0.4391834
1133.678 0.4383422
1134.177 0.4381752
1134.676 0.4388852
1135.176 0.4400479
1135.675 0.4407993
1136.174 0.4406801
1136.673 0.4397972
1137.172 0.4388868
1137.671 0.4385515
1138.17 0.4391102
1138.67 0.4403694
1139.169 0.4421799
1139.668 0.444313
1140.167 0.4463657
1140.666 0.4476118
1141.166 0.4473272
1141.665 0.445445
1142.164 0.4426093
1142.663 0.4405111
1143.162 0.4405487
1143.661 0.4436904
1144.161 0.4487192
1144.66 0.4539115
1145.159 0.457288
1145.658 0.458429
1146.157 0.4579029
1146.657 0.4567957
1147.156 0.455938
1147.655 0.455322
1148.154 0.454505
1148.653 0.4532577
1149.152 0.4517377
1149.651 0.4503692
1150.151 0.4492963
1150.65 0.4482097
1151.149 0.4464678
1151.648 0.4437898
1152.147 0.4403984
1152.647 0.437192
1153.146 0.4349673
1153.645 0.4343592
1154.144 0.4352838
1154.643 0.4373211
1155.142 0.4401191
1155.642 0.4430938
1156.141 0.4457478
1156.64 0.4474319
1157.139 0.4479789
1157.638 0.4475152
1158.137 0.4464939
1158.637 0.4455904
1159.136 0.44503
1159.635 0.4447332
1160.134 0.4444637
1160.633 0.4443101
1161.132 0.4447963
1161.632 0.4463027
1162.131 0.4488827
1162.63 0.4518083
1163.129 0.4539464
1163.628 0.4542954
1164.128 0.4529017
1164.627 0.4507488
1165.126 0.4489159
1165.625 0.448157
1166.124 0.4484635
1166.623 0.4495156
1167.122 0.4506837
1167.622 0.4515463
1168.121 0.4517069
1168.62 0.4510654
1169.119 0.4496905
1169.618 0.4480844
1170.118 0.4472226
1170.617 0.4478879
1171.116 0.4505494
1171.615 0.4539663
1172.114 0.4565872
1172.613 0.4565679
1173.113 0.453966
1173.612 0.4498463
1174.111 0.4464603
1174.61 0.4454868
1175.109 0.4473522
1175.608 0.4506695
1176.108 0.4535481
1176.607 0.4548159
1177.106 0.4546406
1177.605 0.4540789
1178.104 0.4540427
1178.603 0.4546072
1179.103 0.4551367
1179.602 0.4548338
1180.101 0.4537047
1180.6 0.4524537
1181.099 0.4521157
1181.599 0.4528981
1182.098 0.4543527
1182.597 0.4554881
1183.096 0.4555625
1183.595 0.454337
1184.094 0.451951
1184.593 0.4491441
1185.093 0.446465
1185.592 0.444571
1186.091 0.4437968
1186.59 0.4443211
1187.089 0.4458131
1187.589 0.4473605
1188.088 0.4480375
1188.587 0.4474013
1189.086 0.4459856
1189.585 0.4448516
1190.084 0.4450668
1190.584 0.4468233
1191.083 0.4496553
1191.582 0.4523205
1192.081 0.4541038
1192.58 0.4547214
1193.08 0.4546725
1193.579 0.4543704
1194.078 0.4540149
1194.577 0.4536483
1195.076 0.4533507
1195.575 0.4534754
1196.074 0.4543164
1196.574 0.456004
1197.073 0.4582864
1197.572 0.4605593
1198.071 0.4623819
1198.57 0.4634996
1199.07 0.4640281
1199.569 0.4639991
1200.068 0.4634174
1200.567 0.4623657
1201.066 0.4610023
1201.565 0.4597978
1202.065 0.4591956
1202.564 0.4595039
1203.063 0.4604934
1203.562 0.4617228
1204.061 0.4628016
1204.56 0.463629
1205.06 0.4643091
1205.559 0.4648241
1206.058 0.464853
1206.557 0.4638076
1207.056 0.461081
1207.555 0.4574712
1208.055 0.4542337
1208.554 0.4533611
1209.053 0.4554358
1209.552 0.4601009
1210.051 0.4655445
1210.551 0.4695167
1211.05 0.4706586
1211.549 0.4692079
1212.048 0.4671943
1212.547 0.4664315
1213.046 0.4676677
1213.545 0.4701274
1214.045 0.472562
1214.544 0.4739441
1215.043 0.4742492
1215.542 0.4739908
1216.041 0.4738556
1216.541 0.4739568
1217.04 0.4739009
1217.539 0.4733764
1218.038 0.4724613
1218.537 0.4714883
1219.036 0.4706482
1219.536 0.4697105
1220.035 0.4681057
1220.534 0.4658234
1221.033 0.4634562
1221.532 0.4624561
1222.032 0.4635277
1222.531 0.4665741
1223.03 0.470317
1223.529 0.4731202
1224.028 0.4740106
1224.527 0.4732765
1225.026 0.4722272
1225.526 0.4720458
1226.025 0.4730482
1226.524 0.4744659
1227.023 0.4751892
1227.522 0.4747812
1228.022 0.4737434
1228.521 0.4732608
1229.02 0.4743853
1229.519 0.4774191
1230.018 0.4820661
1230.517 0.4868147
1231.017 0.4902326
1231.516 0.4906538
1232.015 0.4883159
1232.514 0.4837782
1233.013 0.4783735
1233.512 0.4738319
1234.012 0.4712728
1234.511 0.4710903
1235.01 0.4722075
1235.509 0.4734306
1236.008 0.4735615
1236.507 0.4725383
1237.007 0.4709016
1237.506 0.4696811
1238.005 0.4695313
1238.504 0.4706529
1239.003 0.4723649
1239.503 0.4737449
1240.002 0.4738935
1240.501 0.472762
1241 0.4710417
1241.499 0.4698103
1241.998 0.4697144
1242.497 0.4706596
1242.997 0.4718667
1243.496 0.4722967
1243.995 0.4715834
1244.494 0.470283
1244.993 0.4699634
1245.493 0.4719469
1245.992 0.4767777
1246.491 0.4830439
1246.99 0.4889747
1247.489 0.492465
1247.988 0.4927977
1248.488 0.4899415
1248.987 0.4852681
1249.486 0.4808018
1249.985 0.4782924
1250.484 0.4781907
1250.983 0.4795863
1251.483 0.4810242
1251.982 0.4811788
1252.481 0.4799373
1252.98 0.4782959
1253.479 0.4778934
1253.978 0.4795534
1254.478 0.4829283
1254.977 0.4860264
1255.476 0.4875174
1255.975 0.4867825
1256.474 0.4852344
1256.974 0.4842549
1257.473 0.4849855
1257.972 0.4869887
1258.471 0.4893718
1258.97 0.4910872
1259.469 0.4919654
1259.968 0.4922917
1260.468 0.4926197
1260.967 0.4933371
1261.466 0.4946687
1261.965 0.4965763
1262.464 0.4987119
1262.964 0.5003148
1263.463 0.5004443
1263.962 0.4986909
1264.461 0.4950398
1264.96 0.4906828
1265.459 0.4867992
1265.959 0.484411
1266.458 0.4834079
1266.957 0.4833802
1267.456 0.4841241
1267.955 0.485466
1268.455 0.487426
1268.954 0.489664
1269.453 0.4913809
1269.952 0.4919519
1270.451 0.4913331
1270.95 0.490555
1271.449 0.4907179
1271.949 0.4924197
1272.448 0.4947743
1272.947 0.4965567
1273.446 0.4967701
1273.945 0.4955633
1274.445 0.4936509
1274.944 0.4920957
1275.443 0.4913984
1275.942 0.491626
1276.441 0.4922933
1276.94 0.4930787
1277.44 0.4939127
1277.939 0.4948139
1278.438 0.4957613
1278.937 0.4966234
1279.436 0.4972465
1279.935 0.4974962
1280.435 0.4971937
1280.934 0.4965434
1281.433 0.4958497
1281.932 0.4957084
1282.431 0.4964497
1282.93 0.4980375
1283.43 0.4997214
1283.929 0.500453
1284.428 0.4994306
1284.927 0.4971082
1285.426 0.4949893
1285.926 0.4946666
1286.425 0.4968386
1286.924 0.5007247
1287.423 0.5049064
1287.922 0.5077929
1288.421 0.5087173
1288.92 0.5076565
1289.42 0.5056454
1289.919 0.5034382
1290.418 0.501609
1290.917 0.5004044
1291.416 0.4999123
1291.916 0.5001975
1292.415 0.5008786
1292.914 0.5016565
1293.413 0.5023447
1293.912 0.5030433
1294.411 0.5039241
1294.911 0.5050562
1295.41 0.5063053
1295.909 0.5077289
1296.408 0.5099244
1296.907 0.5137117
1297.407 0.5196472
1297.906 0.5268191
1298.405 0.5330449
1298.904 0.5354958
1299.403 0.5327734
1299.902 0.5259191
1300.401 0.5173314
1300.901 0.5106109
1301.4 0.5075421
1301.899 0.5085981
1302.398 0.5118125
1302.897 0.5154968
1303.397 0.5182895
1303.896 0.5198093
1304.395 0.5199881
1304.894 0.5186257
1305.393 0.5163623
1305.892 0.5138744
1306.392 0.5122175
1306.891 0.5118514
1307.39 0.5125667
1307.889 0.5132333
1308.388 0.5126626
1308.887 0.5102386
1309.387 0.5068075
1309.886 0.5038228
1310.385 0.5024481
1310.884 0.502834
1311.383 0.5041899
1311.882 0.505667
1312.382 0.5067395
1312.881 0.507496
1313.38 0.5082233
1313.879 0.5089657
1314.378 0.5094797
1314.878 0.5093795
1315.377 0.508719
1315.876 0.5077585
1316.375 0.5068471
1316.874 0.5061231
1317.373 0.5055249
1317.872 0.5050944
1318.372 0.5050609
1318.871 0.5057649
1319.37 0.5072976
1319.869 0.5089806
1320.368 0.509755
1320.868 0.5085797
1321.367 0.5057354
1321.866 0.5020538
1322.365 0.4989374
1322.864 0.4972117
1323.363 0.4970734
1323.863 0.4977436
1324.362 0.4983467
1324.861 0.4984786
1325.36 0.4984524
1325.859 0.4987487
1326.358 0.4998049
1326.858 0.5015408
1327.357 0.5037718
1327.856 0.5064132
1328.355 0.509257
1328.854 0.5119463
1329.353 0.5135836
1329.853 0.5135706
1330.352 0.5116622
1330.851 0.5085356
1331.35 0.5059466
1331.849 0.5055388
1332.349 0.5079861
1332.848 0.5118315
1333.347 0.5153241
1333.846 0.5168748
1334.345 0.5164026
1334.844 0.5145664
1335.343 0.5125823
1335.843 0.5110322
1336.342 0.509676
1336.841 0.5079662
1337.34 0.5058034
1337.839 0.5036814
1338.339 0.5024342
1338.838 0.5026237
1339.337 0.504768
1339.836 0.5082579
1340.335 0.5124368
1340.834 0.5164319
1341.334 0.5193734
1341.833 0.5205769
1342.332 0.5195091
1342.831 0.5169226
1343.33 0.5136573
1343.83 0.5107256
1344.329 0.5085514
1344.828 0.5072371
1345.327 0.5067527
1345.826 0.5070254
1346.325 0.5081739
1346.824 0.5099671
1347.324 0.5117141
1347.823 0.5125945
1348.322 0.5121735
1348.821 0.5106067
1349.32 0.5082834
1349.82 0.5059973
1350.319 0.5045505
1350.818 0.5051693
1351.317 0.5082298
1351.816 0.5134802
1352.315 0.5195601
1352.815 0.5238891
1353.314 0.524476
1353.813 0.5200173
1354.312 0.5130834
1354.811 0.506664
1355.31 0.5035017
1355.81 0.5036207
1356.309 0.5060412
1356.808 0.5091401
1357.307 0.511941
1357.806 0.5144113
1358.305 0.5166204
1358.805 0.5180832
1359.304 0.5177563
1359.803 0.5152493
1360.302 0.5114116
1360.801 0.5078446
1361.301 0.5061695
1361.8 0.5065806
1362.299 0.5085236
1362.798 0.5107618
1363.297 0.5126814
1363.796 0.5140922
1364.295 0.5150887
1364.795 0.5153842
1365.294 0.5141511
1365.793 0.5113201
1366.292 0.5072293
1366.791 0.5030826
1367.291 0.5003627
1367.79 0.5001319
1368.289 0.5026585
1368.788 0.5062595
1369.287 0.5092336
1369.786 0.5101403
1370.286 0.5090886
1370.785 0.5071196
1371.284 0.5061849
1371.783 0.5076242
1372.282 0.5116532
1372.782 0.5166972
1373.281 0.5208845
1373.78 0.5223904
1374.279 0.5209789
1374.778 0.5174926
1375.277 0.5135027
1375.776 0.5108503
1376.276 0.510293
1376.775 0.5118763
1377.274 0.5139233
1377.773 0.5149756
1378.272 0.513857
1378.772 0.5115497
1379.271 0.5098405
1379.77 0.5106138
1380.269 0.5136241
1380.768 0.517393
1381.267 0.5194362
1381.767 0.5186237
1382.266 0.5155798
1382.765 0.5130503
1383.264 0.5132034
1383.763 0.516986
1384.262 0.522878
1384.762 0.5283825
1385.261 0.5310649
1385.76 0.5305286
1386.259 0.5282571
1386.758 0.5262383
1387.257 0.5259833
1387.757 0.5276339
1388.256 0.5302377
1388.755 0.5319194
1389.254 0.5317327
1389.753 0.5298107
1390.253 0.5277989
1390.752 0.5268967
1391.251 0.5275913
1391.75 0.5287826
1392.249 0.5292329
1392.748 0.5284744
1393.247 0.5274747
1393.747 0.5274385
1394.246 0.5289136
1394.745 0.5309673
1395.244 0.5320004
1395.743 0.5307898
1396.243 0.5279679
1396.742 0.5248981
1397.241 0.5231085
1397.74 0.5231024
1398.239 0.5247714
1398.738 0.5271768
1399.238 0.5296849
1399.737 0.532018
1400.236 0.5341127
1400.735 0.5358744
1401.234 0.5370674
1401.733 0.537702
1402.233 0.5377368
1402.732 0.537001
1403.231 0.5354622
1403.73 0.5330663
1404.229 0.5301622
1404.728 0.5276438
1405.228 0.5265642
1405.727 0.5276386
1406.226 0.5302429
1406.725 0.5334077
1407.224 0.535672
1407.724 0.5360812
1408.223 0.5340675
1408.722 0.530383
1409.221 0.5267187
1409.72 0.5249734
1410.219 0.5260645
1410.718 0.5295738
1411.218 0.5341017
1411.717 0.537402
1412.216 0.538356
1412.715 0.537081
1413.214 0.5354228
1413.714 0.5347222
1414.213 0.5356844
1414.712 0.5372451
1415.211 0.5381537
1415.71 0.5376325
1416.209 0.5364714
1416.709 0.5358719
1417.208 0.5369553
1417.707 0.5393735
1418.206 0.5417577
1418.705 0.5420078
1419.205 0.5393478
1419.704 0.5339922
1420.203 0.5279453
1420.702 0.5235325
1421.201 0.5228889
1421.7 0.5259911
1422.199 0.5309472
1422.699 0.5357302
1423.198 0.5389917
1423.697 0.540809
1424.196 0.5421643
1424.695 0.5442526
1425.195 0.547148
1425.694 0.5499459
1426.193 0.5516093
1426.692 0.5517545
1427.191 0.5507161
1427.69 0.5496385
1428.19 0.549141
1428.689 0.5492594
1429.188 0.5495944
1429.687 0.5500603
1430.186 0.5509765
1430.685 0.55266
1431.185 0.5550217
1431.684 0.5572405
1432.183 0.558535
1432.682 0.5585172
1433.181 0.5577649
1433.68 0.5571853
1434.18 0.5573309
1434.679 0.55765
1435.178 0.5572683
1435.677 0.5554547
1436.176 0.5528179
1436.676 0.550535
1437.175 0.5503317
1437.674 0.5521423
1438.173 0.5553239
1438.672 0.5589031
1439.171 0.5621706
1439.67 0.5650715
1440.17 0.5676524
1440.669 0.5696735
1441.168 0.5704618
1441.667 0.5694509
1442.166 0.5672004
1442.666 0.5647309
1443.165 0.5634301
1443.664 0.5637087
1444.163 0.5653679
1444.662 0.5676611
1445.161 0.5699425
1445.661 0.5716979
1446.16 0.5723801
1446.659 0.5715644
1447.158 0.568965
1447.657 0.5655452
1448.157 0.5627205
1448.656 0.562348
1449.155 0.5646841
1449.654 0.5687622
1450.153 0.5728155
1450.652 0.5755447
1451.151 0.5766232
1451.651 0.5763226
1452.15 0.5754968
1452.649 0.5744719
1453.148 0.5732411
1453.647 0.5716915
1454.147 0.5696194
1454.646 0.5667926
1455.145 0.5632539
1455.644 0.5595006
1456.143 0.5567078
1456.642 0.5558677
1457.142 0.5576543
1457.641 0.561222
1458.14 0.5649673
1458.639 0.5674718
1459.138 0.568641
1459.637 0.569087
1460.137 0.5692038
1460.636 0.5687307
1461.135 0.5668735
1461.634 0.5631179
1462.133 0.5586688
1462.632 0.5549034
1463.132 0.5532525
1463.631 0.5533691
1464.13 0.5544122
1464.629 0.5553282
1465.128 0.5558766
1465.628 0.5562507
1466.127 0.5564632
1466.626 0.5560546
1467.125 0.5542362
1467.624 0.5510304
1468.123 0.5474543
1468.622 0.5448268
1469.122 0.5440331
1469.621 0.5448439
1470.12 0.5464007
1470.619 0.5474897
1471.118 0.5476414
1471.618 0.5468635
1472.117 0.5458016
1472.616 0.5450081
1473.115 0.5448838
1473.614 0.5452047
1474.113 0.5456658
1474.613 0.5459445
1475.112 0.5460031
1475.611 0.5459743
1476.11 0.5459964
1476.609 0.5459438
1477.108 0.5455345
1477.608 0.5445873
1478.107 0.5434778
1478.606 0.5430051
1479.105 0.543923
1479.604 0.5460676
1480.103 0.5487361
1480.603 0.5506572
1481.102 0.5509418
1481.601 0.54908
1482.1 0.5459941
1482.599 0.5429239
1483.099 0.541224
1483.598 0.5415018
1484.097 0.5435575
1484.596 0.546506
1485.095 0.5489678
1485.594 0.5503142
1486.093 0.550391
1486.593 0.5499538
1487.092 0.549455
1487.591 0.5489601
1488.09 0.5483501
1488.589 0.5478087
1489.089 0.5480032
1489.588 0.5492635
1490.087 0.5511796
1490.586 0.5522269
1491.085 0.5513511
1491.584 0.5484737
1492.084 0.5451493
1492.583 0.5433976
1493.082 0.5443448
1493.581 0.5468983
1494.08 0.5491812
1494.58 0.5496237
1495.079 0.5482549
1495.578 0.5463261
1496.077 0.5456191
1496.576 0.5469631
1497.075 0.5502042
1497.574 0.554428
1498.074 0.5576484
1498.573 0.5581187
1499.072 0.5544334
1499.571 0.548247
1500.07 0.5417981
1500.57 0.5383619
1501.069 0.5391688
1501.568 0.5434222
1502.067 0.5485876
1502.566 0.5524547
1503.065 0.5543318
1503.565 0.5549738
1504.064 0.5555277
1504.563 0.5560439
1505.062 0.5556891
1505.561 0.5539457
1506.06 0.5510628
1506.56 0.5485315
1507.059 0.5476074
1507.558 0.5487538
1508.057 0.5508849
1508.556 0.5527217
1509.055 0.5531576
1509.555 0.5524442
1510.054 0.5515587
1510.553 0.5516163
1511.052 0.5527697
1511.551 0.5545178
1512.051 0.5556823
1512.55 0.5556328
1513.049 0.5544398
1513.548 0.5526371
1514.047 0.5507579
1514.546 0.5487222
1515.045 0.5462302
1515.545 0.5436459
1516.044 0.5420574
1516.543 0.5427152
1517.042 0.5456372
1517.541 0.5498357
1518.041 0.5533099
1518.54 0.5551989
1519.039 0.5556746
1519.538 0.5558905
1520.037 0.5564818
1520.536 0.5570535
1521.036 0.5567953
1521.535 0.5554737
1522.034 0.5535149
1522.533 0.5519465
1523.032 0.5513547
1523.532 0.5519346
1524.031 0.5532148
1524.53 0.5548522
1525.029 0.5561718
1525.528 0.5562827
1526.027 0.5545081
1526.526 0.5510235
1527.026 0.5473275
1527.525 0.5450956
1528.024 0.5455176
1528.523 0.5478256
1529.022 0.5506464
1529.522 0.5527286
1530.021 0.5538581
1530.52 0.5545341
1531.019 0.5556616
1531.518 0.5575603
1532.017 0.560029
1532.517 0.5622718
1533.016 0.5636196
1533.515 0.5637167
1534.014 0.5636069
1534.513 0.5642417
1535.012 0.565949
1535.512 0.5672291
1536.011 0.5660861
1536.51 0.5619082
1537.009 0.5575735
1537.508 0.5561565
1538.007 0.5590431
1538.507 0.5626746
1539.006 0.5628998
1539.505 0.5598258
1540.004 0.5592903
1540.503 0.5671451
1541.003 0.5791865
1541.502 0.577008
1542.001 0.5342123
1542.5 0.4399247
##END= 
